# t	theta	d_theta	d_d_x	
0.000000	0.785398	0.000000	0.000000
0.100000	0.735615	-0.473358	-0.162616
0.200000	0.638041	-0.927767	0.216849
0.300000	0.501013	-1.302906	0.722263
0.400000	0.336337	-1.565798	0.815314
0.500000	0.155186	-1.722445	0.900770
0.600000	-0.030113	-1.761883	0.993786
0.700000	-0.206867	-1.680636	1.070385
0.800000	-0.363108	-1.485596	1.127445
0.900000	-0.488458	-1.191866	1.151213
1.000000	-0.574870	-0.821636	1.151341
1.100000	-0.616996	-0.400549	1.125621
1.200000	-0.612426	0.043452	0.290334
1.300000	-0.566785	0.433968	0.006431
1.400000	-0.484714	0.780363	-0.212138
1.500000	-0.372773	1.064367	-0.317269
1.600000	-0.238782	1.274033	-0.878901
1.700000	-0.095057	1.366584	-0.952623
1.800000	0.048553	1.365501	-1.022728
1.900000	0.182228	1.271021	-1.080907
2.000000	0.296910	1.090440	-1.126216
2.100000	0.384927	0.836897	-1.154337
2.200000	0.440493	0.528333	-1.136646
2.300000	0.460218	0.187554	-0.706009
2.400000	0.445678	-0.138247	-0.204549
2.500000	0.401053	-0.424317	0.000448
2.600000	0.330508	-0.670757	0.232652
2.700000	0.240078	-0.859844	0.270246
2.800000	0.135843	-0.991103	0.910776
2.900000	0.028787	-1.017927	0.965536
3.000000	-0.073749	-0.974943	1.008058
3.100000	-0.164806	-0.865806	1.048493
3.200000	-0.238213	-0.697974	1.070756
3.300000	-0.289086	-0.483716	0.995207
3.400000	-0.314659	-0.243160	0.698799
3.500000	-0.315252	-0.005633	0.208790
3.600000	-0.294048	0.201612	0.013554
3.700000	-0.253692	0.383715	-0.016651
3.800000	-0.196985	0.539195	-0.229877
3.900000	-0.128998	0.646439	-0.259030
4.000000	-0.054338	0.709890	-0.399926
4.100000	0.021206	0.718302	-0.826528
4.200000	0.089892	0.653094	-0.880833
4.300000	0.146895	0.541996	-0.740272
4.400000	0.189447	0.404601	-0.624095
4.500000	0.215565	0.248344	-0.583591
4.600000	0.223832	0.078599	-0.228457
4.700000	0.216059	-0.073908	-0.051297
4.800000	0.193918	-0.210523	0.002218
4.900000	0.159195	-0.330155	0.046038
5.000000	0.114431	-0.425636	0.201553
5.100000	0.063560	-0.483699	0.255034
5.200000	0.010244	-0.506940	0.272608
5.300000	-0.041930	-0.496090	0.318126
5.400000	-0.089267	-0.450098	0.370207
5.500000	-0.128345	-0.371567	0.399664
5.600000	-0.156432	-0.267061	0.410296
5.700000	-0.171637	-0.144575	0.308473
5.800000	-0.173650	-0.019134	0.113094
5.900000	-0.163631	0.095259	0.020910
6.000000	-0.142841	0.197682	-0.012424
6.100000	-0.112847	0.285186	-0.057224
6.200000	-0.075895	0.351353	-0.163439
6.300000	-0.035090	0.387993	-0.229762
6.400000	0.006475	0.395215	-0.259608
6.500000	0.045897	0.374840	-0.286289
6.600000	0.080436	0.328402	-0.303915
6.700000	0.107728	0.259505	-0.306859
6.800000	0.125982	0.173568	-0.276616
6.900000	0.134214	0.078271	-0.164982
7.000000	0.132629	-0.015074	-0.059679
7.100000	0.122026	-0.100813	-0.006768
7.200000	0.103445	-0.176677	0.021209
7.300000	0.078277	-0.239302	0.057798
7.400000	0.048402	-0.284069	0.123102
7.500000	0.016193	-0.306247	0.179453
7.600000	-0.015878	-0.304950	0.213639
7.700000	-0.045501	-0.281657	0.227803
7.800000	-0.070652	-0.239151	0.224165
7.900000	-0.089723	-0.181327	0.211634
8.000000	-0.101555	-0.112510	0.186097
8.100000	-0.105551	-0.037993	0.096908
8.200000	-0.102041	0.033372	0.034040
8.300000	-0.091670	0.098610	-0.002636
8.400000	-0.075355	0.155130	-0.028216
8.500000	-0.054326	0.199955	-0.060100
8.600000	-0.030161	0.229767	-0.096304
8.700000	-0.004673	0.242352	-0.133794
8.800000	0.020232	0.236806	-0.162395
8.900000	0.042744	0.214052	-0.172126
9.000000	0.061335	0.176761	-0.168170
9.100000	0.074820	0.128226	-0.156555
9.200000	0.082402	0.072088	-0.127196
9.300000	0.083781	0.013115	-0.062907
9.400000	0.079294	-0.042659	-0.019119
9.500000	0.069524	-0.092901	0.010008
9.600000	0.055298	-0.135268	0.033413
9.700000	0.037696	-0.167364	0.056496
9.800000	0.018017	-0.187118	0.082234
9.900000	-0.002290	-0.193078	0.106047
10.000000	-0.021744	-0.184975	0.123590
10.100000	-0.038963	-0.163732	0.127533
10.200000	-0.052803	-0.131591	0.126443
10.300000	-0.062369	-0.090961	0.116917
10.400000	-0.067104	-0.045017	0.084434
10.500000	-0.066914	0.001806	0.040227
10.600000	-0.062105	0.045725	0.008105
10.700000	-0.053203	0.084647	-0.015922
10.800000	-0.040945	0.116549	-0.035420
10.900000	-0.026259	0.139642	-0.053672
11.000000	-0.010220	0.152501	-0.072224
11.100000	0.006004	0.154269	-0.088218
11.200000	0.021253	0.144992	-0.100586
11.300000	0.034453	0.125503	-0.104454
11.400000	0.044718	0.097607	-0.101694
11.500000	0.051400	0.063537	-0.091102
11.600000	0.054135	0.026002	-0.059852
11.700000	0.052951	-0.011254	-0.025960
11.800000	0.048151	-0.045641	-0.001558
11.900000	0.040209	-0.075521	0.018405
12.000000	0.029772	-0.099231	0.035173
12.100000	0.017632	-0.115430	0.050311
12.200000	0.004679	-0.123164	0.063836
12.300000	-0.008155	-0.122034	0.074891
12.400000	-0.019962	-0.112267	0.082972
12.500000	-0.029921	-0.094687	0.083458
12.600000	-0.037379	-0.070917	0.078762
12.700000	-0.041884	-0.042831	0.067795
12.800000	-0.043214	-0.012650	0.040019
12.900000	-0.041468	0.016602	0.015270
13.000000	-0.036923	0.043214	-0.003817
13.100000	-0.030002	0.065812	-0.019931
13.200000	-0.021261	0.083113	-0.034234
13.300000	-0.011364	0.094106	-0.046555
13.400000	-0.001036	0.098199	-0.056835
13.500000	0.008982	0.095256	-0.064390
13.600000	0.017989	0.085640	-0.068988
13.700000	0.025368	0.070163	-0.068339
13.800000	0.030644	0.050162	-0.062130
13.900000	0.033514	0.027290	-0.049651
14.000000	0.033875	0.003429	-0.027275
14.100000	0.031851	-0.019243	-0.008558
14.200000	0.027698	-0.039484	0.006745
14.300000	0.021788	-0.056192	0.019370
14.400000	0.014590	-0.068448	0.031344
14.500000	0.006650	-0.075496	0.040831
14.600000	-0.001452	-0.077035	0.048083
14.700000	-0.009141	-0.073105	0.052876
14.800000	-0.015884	-0.064117	0.054540
14.900000	-0.021232	-0.050852	0.052756
15.000000	-0.024849	-0.034392	0.046621
